331,327,335,328,335,329,335,326,332,332,334,328,331,334,332,335,332,335,364,352,341,344,333,336,329,331,327,335,328,335,329,335,326,332,332,334,328,331,334,332,335,332,335,334,340,331,336,330,335,331,335,332,332,331,333,333,338,340,337,337,344,356,341,340,329,335,332,326,330,337,329,339,331,382,452,389,304,323,331,326,329,330,328,331,333,332,334,335,334,331,340,340,341,346,349,354,356,358,364,357,350,342,341,331,327,327,327,329,325,327,324,331,328,323,329,331,323,331,322,331,329,334,325,335,329,334,330,331,334,333,337,332,332,331,337,331,340,334,341,348,351,334,326,328,331,325,330,331,334,327,342,407,434,343,293,324,328,330,322,333,327,330,330,339,330,337,332,337,334,339,343,350,347,356,356,357,360,350,345,330,326,321,329,317,325,323,322,320,325,317,320,323,327,322,325,325,329,324,325,327,328,326,333,330,329,334,327,336,332,336,333,333,330,339,332,343,343,352,347,346,336,330,335,329,335,334,337,331,342,362,445,397,316,315,336,331,338,336,340,333,334,336,340,336,336,342,339,348,341,350,354,357,358,369,358,362,356,351,337,342,333,335,330,332,334,332,333,335,337,331,334,332,337,334,335,332,341,326,341,330,339,333,336,337,337,335,335,337,340,331,336,336,337,338,336,337,338,345,332,342,337,346,339,361,349,348,331,333,335,336,336,334,338,336,341,369,454,418,316,320,338,328,336,333,337,333,338,332,338,336,337,339,343,341,346,345,346,353,356,360,362,361,352,349,337,337,326,334,322,329,327,330,323,330,326,329,330,324,330,329,327,325,330,327,327,328,332,329,329,325,330,330,335,327,330,330,332,329,334,327,332,328,331,337,329,338,333,346,347,340,320,328,331,328,325,333,326,331,328,362,432,410,313,305,324,325,322,326,334,330,330,324,331,328,337,331,337,334,339,337,352,351,357,358,360,358,349,343,335,329,329,327,322,321,324,326,322,324,320,330,324,323,322,330,320,330,325,333,327,333,330,329,328,328,331,326,336,330,332,327,331,331,333,334,336,330,337,342,352,343,332,330,332,333,332,332,329,339,332,353,425,433,322,319,331,334,333,333,336,338,335,341,340,344,341,341,346,346,347,349,358,359,366,367,367,366,364,354,344,336,337,337,337,332,334,331,335,333,336,331,332,333,332,335,328,337,331,335,337,339,329,336,331,339,332,335,333,341,327,336,332,335,337,334,337,331,337,333,337,337,337,338,352,354,353,332,340,325,332,330,335,335,337,338,353,433,446,334,316,336,329,338,328,337,336,337,336,346,332,340,341,343,343,347,347,349,358,358,357,363,366,362,358,340,341,331,333,330,332,330,335,333,332,336,336,326,332,330,336,335,332,330,335,336,333,332,336,336,330,337,331,337,335,343,331,334,330,339,336,338,329,336,334,336,336,338,336,342,346,352,347,335,329,329,334,331,333,324,338,337,342,404,454,348,303,322,333,324,328,334,325,329,327,332,332,330,327,338,335,341,338,349,344,355,352,362,360,353,344,337,333,322,326,324,328,323,322,324,329,322,327,321,327,324,325,320,331,326,331,325,325,325,328,325,326,331,325,327,324,331,330,329,326,330,325,334,326,329,325,342,321,330,329,333,337,349,336,327,332,321,332,322,330,326,331,331,352,417,421,317,311,325,333,328,334,325,331,327,330,331,328,336,325,334,332,337,334,340,345,350,335,329,325,334,324,327,328,327,328,326,325,331,327,330,331,328,336,325,334,332,337,334,340,345,350,335,329,325,334,326,332,334,338,392,443,362,297,325,329,330,326,327,334,335,333,333,337,338,334,345,338,345,343,345,354,359,359,360,365,364,352,341,344,333,336,329,331,327,335,328,335,329,335,326,332,332,334,328,331,334,332,335,332,335,334,340,327,333,331,336,330,335,331,335,332,332,331,333,333,338,340,337,337,344,356,341,340,329,335,332,326,330,337,329,339,331,382,452,389,304,323,331,326,329,330,328,331,333,332,334,335,334,331,340,340,341,346,349,354,356,358,364,357,350,342,341,331,327,327,327,329,325,327,324,331,328,323,329,331,323,331,322,331,329,334,325,335,329,334,330,331,334,333,337,332,332,331,337,331,340,334,341,348,351,334,326,328,331,325,330,331,334,327,342,407,434,343,293,324,328,330,322,333,327,330,330,339,330,337,332,337,334,339,343,350,347,356,356,357,360,350,345,330,326,321,329,317,325,323,322,320,325,317,320,323,327,322,325,325,329,324,325,327,328,326,333,330,329,334,327,336,332,336,333,333,330,339,332,343,343,352,347,346,336,330,335,329,335,334,337,331,342,362,445,397,316,315,336,331,338,336,340,333,334,336,340,336,336,342,339,348,341,350,354,357,358,369,358,362,356,351,337,342,333,335,330,332,334,332,333,335,337,331,334,332,337,334,335,332,341,326,341,330,339,333,336,337,337,335,335,337,340,331,336,336,337,338,336,337,338,345,332,342,337,346,339,361,349,348,331,333,335,336,336,334,338,336,341,369,454,418,316,320,338,328,336,333,337,333,338,332,338,336,337,339,343,341,346,345,346,353,356,360,362,361,352,349,337,337,326,334,322,329,327,330,323,330,326,329,330,324,330,329,327,325,330,327,327,328,332,329,329,325,330,330,335,327,330,330,332,329,334,327,332,328,331,337,329,338,333,346,347,340,320,328,331,328,325,333,326,331,328,362,432,410,313,305,324,325,322,326,334,330,330,324,331,328,337,331,337,334,339,337,352,351,357,358,360,358,349,343,335,329,329,327,322,321,324,326,322,324,320,330,324,323,322,330,320,330,325,333,327,333,330,329,328,328,331,326,336,330,332,327,331,331,333,334,336,330,337,342,352,343,332,330,332,333,332,332,329,339,332,353,425,433,322,319,331,334,333,333,336,338,335,341,340,344,341,341,346,346,347,349,358,359,366,367,367,366,364,354,344,336,337,337,337,332,334,331,335,333,336,331,332,333,332,335,328,337,331,335,337,339,329,336,331,339,332,335,333,341,327,336,332,335,337,334,337,331,337,333,337,337,337,338,352,354,353,332,340,325,332,330,335,335,337,338,353,433,446,334,316,336,329,338,328,337,336,337,336,346,332,340,341,343,343,347,347,349,358,358,357,363,366,362,358,340,341,331,333,330,332,330,335,333,332,336,336,326,332,330,336,335,332,330,335,336,333,332,336,336,330,337,331,337,335,343,331,334,330,339,336,338,329,336,334,336,336,338,336,342,346,352,347,335,329,329,334,331,333,324,338,337,342,404,454,348,303,322,333,324,328,334,325,329,327,332,332,330,327,338,335,341,338,349,344,355,352,362,360,353,344,337,333,322,326,324,328,323,322,324,329,322,327,321,327,324,325,320,331,326,331,325,325,325,328,325,326,331,325,327,324,331,330,329,326,330,325,334,326,329,325,342,321,330,329,333,337,349,336,327,332,321,332,322,330,326,331,331,352,417,421,317,311,325,333,328,334,325,331,327,330,331,328,336,325,334,332,337,334,340,345,350,335,329,325,334,324,327,328,327,328,326,325,331,327,330,331,328,336,325,334,332,337,334,340,345,350,335,329,325,334,326,332,334,338,392,443,362,297,325,329,330,326,327,334,335,333,333,337,338,334,345,338,345,343,345,354,359,359,360,365,364,352,341,344,333,336,329,331,327,335,328,335,329,335,326,332,332,334,328,331,334,332,335,332,335,334,340,327,333,331,336,330,335,331,335,332,332,331,333,333,338,340,337,337,344,356,341,340,329,335,332,326,330,337,329,339,331,382,452,389,304,323,331,326,329,330,328,331,333,332,334,335,334,331,340,340,341,346,349,354,356,358,364,357,350,342,341,331,327,327,327,329,325,327,324,331,328,323,329,331,323,331,322,331,329,334,325,335,329,334,330,331,334,333,337,332,332,331,337,331,340,334,341,348,351,334,326,328,331,325,330,331,334,327,342,407,434,343,293,324,328,330,322,333,327,330,330,339,330,337,332,337,334,339,343,350,347,356,356,357,360,350,345,330,326,321,329,317,325,323,322,320,325,317,320,323,327,322,325,325,329,324,325,327,328,326,333,330,329,334,327,336,332,336,333,333,330,339,332,343,343,352,347,346,336,330,335,329,335,334,337,331,342,362,445,397,316,315,336,331,338,336,340,333,334,336,340,336,336,342,339,348,341,350,354,357,358,369,358,362,356,351,337,342,333,335,330,332,334,332,333,335,337,331,334,332,337,334,335,332,341,326,341,330,339,333,336,337,337,335,335,337,340,331,336,336,337,338,336,337,338,345,332,342,337,346,339,361,349,348,331,333,335,336,336,334,338,336,341,369,454,418,316,320,338,328,336,333,337,333,338,332,338,336,337,339,343,341,346,345,346,353,356,360,362,361,352,349,337,337,326,334,322,329,327,330,323,330,326,329,330,324,330,329,327,325,330,327,327,328,332,329,329,325,330,330,335,327,330,330,332,329,334,327,332,328,331,337,329,338,333,346,347,340,320,328,331,328,325,333,326,331,328,362,432,410,313,305,324,325,322,326,334,330,330,324,331,328,337,331,337,334,339,337,352,351,357,358,360,358,349,343,335,329,329,327,322,321,324,326,322,324,320,330,324,323,322,330,320,330,325,333,327,333,330,329,328,328,331,326,336,330,332,327,331,331,333,334,336,330,337,342,352,343,332,330,332,333,332,332,329,339,332,353,425,433,322,319,331,334,333,333,336,338,335,341,340,344,341,341,346,346,347,349,358,359,366,367,367,366,364,354,344,336,337,337,337,332,334,331,335,333,336,331,332,333,332,335,328,337,331,335,337,339,329,336,331,339,332,335,333,341,327,336,332,335,337,334,337,331,337,333,337,337,337,338,352,354,353,332,340,325,332,330,335,335,337,338,353,433,446,334,316,336,329,338,328,337,336,337,336,346,332,340,341,343,343,347,347,349,358,358,357,363,366,362,358,340,341,331,333,330,332,330,335,333,332,336,336,326,332,330,336,335,332,330,335,336,333,332,336,336,330,337,331,337,335,343,331,334,330,339,336,338,329,336,334,336,336,338,336,342,346,352,347,335,329,329,334,331,333,324,338,337,342,404,454,348,303,322,333,324,328,334,325,329,327,332,332,330,327,338,335,341,338,349,344,355,352,362,360,353,344,337,333,322,326,324,328,323,322,324,329,322,327,321,327,324,325,320,331,326,331,325,325,325,328,325,326,331,325,327,324,331,330,329,326,330,325,334,326,329,325,342,321,330,329,333,337,349,336,327,332,321,332,322,330,326,331,331,352,417,421,317,311,325,333,328,334,325,331,327,330,331,328,336,325,334,332,337,334,340,345,350,335,329,325,334,324,327,328,327,328,326,325,331,327,330,331,328,336,325,334,332,337,334,340,345,350,335,329,325,334,326,332,334,338,392,443,362,297,325,329,330,326,327,334,335,333,333,337,338,334,345,338,345,343,345,354,359,359,360,365,364,352,341,344,333,336,329,331,327,335,328,335,329,335,326,332,332,334,328,331,334,332,335,332,335,334,340,327,333,331,336,330,335,331,335,332,332,331,333,333,338,340,337,337,344,356,341,340,329,335,332,326,330,337,329,339,331,382,452,389,304,323,331,326,329,330,328,331,333,332,334,335,334,331,340,340,341,346,349,354,356,358,364,357,350,342,341,331,327,327,327,329,325,327,324,331,328,323,329,331,323,331,322,331,329,334,325,335,329,334,330,331,334,333,337,332,332,331,337,331,340,334,341,348,351,334,326,328,331,325,330,331,334,327,342,407,434,343,293,324,328,330,322,333,327,330,330,339,330,337,332,337,334,339,343,350,347,356,356,357,360,350,345,330,326,321,329,317,325,323,322,320,325,317,320,323,327,322,325,325,329,324,325,327,328,326,333,330,329,334,327,336,332,336,333,333,330,339,332,343,343,352,347,346,336,330,335,329,335,334,337,331,342,362,445,397,316,315,336,331,338,336,340,333,334,336,340,336,336,342,339,348,341,350,354,357,358,369,358,362,356,351,337,342,333,335,330,332,334,332,333,335,337,331,334,332,337,334,335,332,341,326,341,330,339,333,336,337,337,335,335,337,340,331,336,336,337,338,336,337,338,345,332,342,337,346,339,361,349,348,331,333,335,336,336,334,338,336,341,369,454,418,316,320,338,328,336,333,337,333,338,332,338,336,337,339,343,341,346,345,346,353,356,360,362,361,352,349,337,337,326,334,322,329,327,330,323,330,326,329,330,324,330,329,327,325,330,327,327,328,332,329,329,325,330,330,335,327,330,330,332,329,334,327,332,328,331,337,329,338,333,346,347,340,320,328,331,328,325,333,326,331,328,362,432,410,313,305,324,325,322,326,334,330,330,324,331,328,337,331,337,334,339,337,352,351,357,358,360,358,349,343,335,329,329,327,322,321,324,326,322,324,320,330,324,323,322,330,320,330,325,333,327,333,330,329,328,328,331,326,336,330,332,327,331,331,333,334,336,330,337,342,352,343,332,330,332,333,332,332,329,339,332,353,425,433,322,319,331,334,333,333,336,338,335,341,340,344,341,341,346,346,347,349,358,359,366,367,367,366,364,354,344,336,337,337,337,332,334,331,335,333,336,331,332,333,332,335,328,337,331,335,337,339,329,336,331,339,332,335,333,341,327,336,332,335,337,334,337,331,