323,345,348,349,352,343,333,332,329,327,327,300,364,515,553,370,293,320,319,324,341,335,343,321,331,339,348,342,361,348,358,363,356,376,380,388,382,380,373,372,350,342,326,318,313,315,305,293,296,318,313,307,312,313,308,325,324,315,318,314,324,311,314,318,322,315,325,317,323,313,315,327,330,328,329,317,323,325,333,322,323,331,318,334,327,332,329,339,335,344,337,356,349,323,324,324,331,318,304,428,576,496,318,304,322,320,322,322,342,327,343,336,335,333,349,349,351,354,354,355,369,379,376,381,378,372,363,352,334,329,304,291,304,303,308,306,306,312,319,311,309,313,318,310,322,318,324,308,319,608,975,437,462,448,575,2573,28160,28257,26880,26222,28416,26230,11776,-31991,379,-19968,370,25088,-6144,-15104,-15360,-16384,-16128,-15872,-14848,256,14906,2657,3383,2570,2570,2570,2570,2570,2570,2570,2570,2570,2570,2570,2570,2570,2570,2570,2573,13111,2573,12593,3377,14090,3379,13578,13113,2573,14135,2573,14640,3376,14090,3385,321,332,322,330,326,331,331,352,417,421,317,311,325,333,328,334,328,322,333,323,327,327,334,336,349,336,327,329,336,324,301,350,510,563,380,295,313,321,323,334,331,339,328,336,337,344,338,353,348,353,358,365,370,373,385,383,389,375,365,361,345,322,327,301,316,312,304,308,310,309,310,313,303,310,311,317,309,319,314,321,317,317,317,320,315,318,315,327,322,322,314,325,325,317,324,320,324,324,318,331,332,322,330,320,334,333,332,326,333,340,349,360,348,337,323,332,333,341,317,301,413,569,511,328,302,326,326,329,325,334,326,341,335,338,335,2570,2570,2570,2570,2570,2570,2570,2570,2570,2570,2570,2570,2570,2570,2570,2570,14090,12345,2573,13363,3381,14090,3379,13066,13110,2573,12600,2573,14640,3376,14090,3385,325,324,315,318,314,324,311,314,318,322,315,325,317,323,313,315,327,330,328,329,317,323,325,333,322,323,331,318,334,327,332,329,339,335,344,337,356,349,323,324,324,331,318,304,428,576,496,318,304,322,320,322,322,342,327,343,336,335,333,349,349,351,354,354,355,369,379,376,381,378,372,363,352,334,329,304,291,304,303,308,306,306,312,319,311,309,313,318,310,322,318,324,308,319,608,975,437,462,448,575,2573,28160,28257,26880,26222,28416,26230,11776,14376,1060,24320,1035,25088,-6144,-15104,-15360,-16384,-16128,-15872,-14848,256,11308,2657,2657,2573,3384,13834,2573,3381,13066,2573,3381,14346,2573,3380,14090,2573,3379,12810,2573,3381,14602,2573,3383,12298,2573,12554,2573,3379,12554,2573,3383,13834,2573,3383,14602,321,332,322,330,326,331,331,352,417,421,317,311,325,333,328,334,285,403,572,547,345,302,317,323,323,329,337,336,335,331,338,344,346,347,349,357,357,357,378,370,387,368,380,378,368,345,334,321,313,306,296,304,309,302,309,302,311,312,307,307,304,317,311,329,321,320,317,318,312,312,317,326,320,318,328,315,328,322,326,317,337,323,320,320,326,324,336,326,334,325,329,327,333,334,340,344,336,341,349,351,330,325,322,336,326,303,389,554,507,332,295,309,330,333,344,334,322,335,343,348,354,361,351,342,354,362,371,367,377,370,388,381,377,369,354,347,328,313,303,305,306,309,303,309,309,316,308,317,308,323,319,316,307,312,316,316,320,319,318,316,322,320,328,320,327,319,333,320,332,329,327,321,322,338,322,326,331,323,329,321,336,335,329,340,341,347,337,335,326,327,323,324,298,339,496,579,422,299,312,322,324,321,336,337,332,330,335,329,350,342,344,344,364,360,379,372,387,375,379,377,375,362,340,326,318,309,301,297,296,320,315,297,305,311,311,306,311,313,308,315,313,320,317,315,323,314,329,313,319,321,326,320,320,319,321,320,329,319,326,325,325,327,328,329,318,326,328,328,324,334,332,335,341,344,342,357,344,329,328,329,331,321,294,398,573,545,359,299,320,327,329,323,333,330,333,325,335,339,337,346,352,351,355,355,374,369,375,380,382,368,362,360,334,314,308,300,309,304,300,313,300,298,309,314,310,301,305,316,303,315,318,314,323,320,317,317,321,313,321,322,317,311,318,320,322,328,329,318,316,323,324,331,320,326,325,334,331,324,321,320,323,345,348,349,352,343,333,332,329,327,327,300,364,515,553,370,293,320,319,324,341,335,343,321,331,339,348,342,361,348,358,363,356,376,380,388,382,380,373,372,350,342,326,318,313,315,305,293,296,318,313,307,312,313,308,325,324,315,318,314,324,311,314,318,322,315,325,317,323,313,315,327,330,328,329,317,323,325,333,322,323,331,318,334,327,332,329,339,335,344,337,356,349,323,324,324,331,318,304,428,576,496,318,304,322,320,322,322,342,327,343,336,335,333,349,349,351,354,354,355,369,379,376,381,378,372,363,352,334,329,304,291,304,303,308,306,306,312,319,311,309,313,318,310,322,318,324,308,319,608,975,437,462,448,575,2573,28160,28257,26880,26222,28416,26230,11776,10360,116,-31744,113,-8704,-6144,-15104,-15360,-16384,-16128,-15872,-14848,256,14392,2657,2570,2570,2570,2570,2570,2570,2570,2570,2570,2570,2570,2570,2570,2570,2570,2570,12343,3379,14090,3385,12298,12345,2573,13624,2573,14642,3384,13066,13620,2573,13111,2573,325,324,315,318,314,324,311,314,318,322,315,325,317,323,313,315,327,330,328,329,317,323,325,333,322,323,331,318,334,327,332,329,339,335,344,337,356,349,323,324,324,331,318,304,428,576,496,318,304,322,320,322,322,342,327,343,336,335,333,349,349,351,354,354,355,369,379,376,381,378,372,363,352,334,329,304,291,304,303,308,306,306,312,319,311,309,313,318,310,322,318,324,308,319,608,975,437,462,448,575,2573,28160,28257,26880,26222,28416,26230,11776,14376,1060,24320,1035,25088,-6144,-15104,-15360,-16384,-16128,-15872,-14848,256,11308,2657,2657,2573,3384,13834,2573,3381,13066,2573,3381,14346,2573,3380,14090,2573,3379,12810,2573,3381,14602,2573,3383,12298,2573,12554,2573,3379,12554,2573,3383,13834,2573,3383,14602,321,332,322,330,326,331,331,352,417,421,317,311,325,333,328,334,285,403,572,547,345,302,317,323,323,329,337,336,335,331,338,344,346,347,349,357,357,357,378,370,387,368,380,378,368,345,334,321,313,306,296,304,309,302,309,302,311,312,307,307,304,317,311,329,321,320,317,318,312,312,317,326,320,318,328,315,328,322,326,317,337,323,320,320,326,324,336,326,334,325,329,327,333,334,340,344,336,341,349,351,330,325,322,336,326,303,389,554,507,332,295,309,330,333,344,334,322,335,343,348,354,361,351,342,354,362,371,367,377,370,388,381,377,369,354,347,328,313,303,305,306,309,303,309,309,316,308,317,308,323,319,316,307,312,316,316,320,319,318,316,322,320,328,320,327,319,333,320,332,329,327,321,322,338,322,326,331,323,329,321,336,335,329,340,341,347,337,335,326,327,323,324,298,339,496,579,422,299,312,322,324,321,336,337,332,330,335,329,350,342,344,344,364,360,379,372,387,375,379,377,375,362,340,326,318,309,301,297,296,320,315,297,305,311,311,306,311,313,308,315,313,320,317,315,323,314,329,313,319,321,326,320,320,319,321,320,329,319,326,325,325,327,328,329,318,326,328,328,324,334,332,335,341,344,342,357,344,329,328,329,331,321,294,398,573,545,359,299,320,327,329,323,333,330,333,325,335,339,337,346,352,351,355,355,374,369,375,380,382,368,362,360,334,314,308,300,309,304,300,313,300,298,309,314,310,301,305,316,303,315,318,314,323,320,317,317,321,313,321,322,317,311,318,320,322,328,329,318,316,323,324,331,320,326,325,334,331,324,321,320,323,345,348,349,352,343,333,332,329,327,327,300,364,515,553,370,293,320,319,324,341,335,343,321,331,339,348,342,361,348,358,363,356,376,380,388,382,380,373,372,350,342,326,318,313,315,305,293,296,318,313,307,312,313,308,325,324,315,318,314,324,311,314,318,322,315,325,317,323,313,315,327,330,328,329,317,323,325,333,322,323,331,318,334,327,332,329,339,335,344,337,356,349,323,324,324,331,318,304,428,576,496,318,304,322,320,322,322,342,327,343,336,335,333,349,349,351,354,354,355,369,379,376,381,378,372,363,352,334,329,304,291,304,303,308,306,306,312,319,311,309,313,318,310,322,318,324,308,319,608,975,437,462,448,575,2573,28160,28257,26880,26222,28416,26230,11776,7252,148,-18432,144,-8704,-6144,-15104,-15360,-16384,-16128,-15872,-14848,256,13878,2657,2570,2570,2570,2570,2570,2570,2570,2570,2570,2570,2570,2570,2570,2570,2570,12343,2573,12298,14393,2573,14643,3379,317,323,313,315,327,330,328,329,317,323,325,333,322,323,331,318,334,327,332,329,339,335,344,337,356,349,323,324,324,331,318,304,428,576,496,318,304,322,320,322,322,342,327,343,336,335,333,349,349,351,354,354,355,369,379,376,381,378,372,363,352,334,329,304,291,304,303,308,306,306,312,319,311,309,313,318,310,322,318,324,308,319,608,975,437,462,448,575,2573,28160,28257,26880,26222,28416,26230,11776,-5311,91,-10240,89,25088,-6144,-15104,-15360,-16384,-16128,-15872,-14848,256,10794,2657,2570,2570,2570,2570,2570,2570,2570,2570,2570,12343,2573,12343,2573,12343,2573,12343,2573,12343,2573,12343,2573,2573,13111,2573,12593,3377,14090,3379,13578,13113,2573,14135,321,332,322,330,326,331,331,352,417,421,317,311,325,333,328,334,328,322,333,323,327,327,334,336,349,336,327,329,336,324,301,350,510,563,380,295,313,321,323,334,331,339,328,336,337,344,338,353,348,353,358,365,370,373,385,383,389,375,365,361,345,322,327,301,316,312,304,308,310,309,310,313,303,310,311,317,309,319,314,321,317,317,317,320,315,318,315,327,322,322,314,325,325,317,324,320,324,324,318,331,332,322,330,320,334,333,332,326,333,340,349,360,348,337,323,332,333,341,317,301,413,569,511,328,302,326,326,329,325,334,326,341,335,338,335,344,349,351,354,361,363,361,377,376,387,389,378,356,355,333,325,308,304,307,313,302,305,309,297,310,314,311,307,313,316,315,313,322,308,316,318,319,311,319,314,324,314,321,325,320,323,320,322,316,323,325,326,325,335,319,327,317,328,328,327,326,328,329,329,336,335,337,345,345,349,327,330,328,328,321,285,403,572,547,345,302,317,323,323,329,337,336,335,331,338,344,346,347,349,357,357,357,378,370,387,368,380,378,368,345,334,321,313,306,296,304,309,302,309,302,311,312,307,307,304,317,311,329,321,320,317,318,312,312,317,326,320,318,328,315,328,322,326,317,337,323,320,320,326,324,336,326,334,325,329,327,333,334,340,344,336,341,349,351,330,325,322,336,326,303,389,554,507,332,295,309,330,333,344,334,322,335,343,348,354,361,351,342,354,362,371,367,377,370,388,381,377,369,354,347,328,313,303,305,306,309,303,309,309,316,308,317,308,323,319,316,307,312,316,316,320,319,318,316,322,320,328,320,327,319,333,320,332,329,327,321,322,338,322,326,331,323,329,321,336,335,329,340,341,347,337,335,326,327,323,324,298,339,496,579,422,299,312,322,324,321,336,337,332,330,335,329,350,342,344,344,364,360,379,372,387,375,379,377,375,362,340,326,318,309,301,297,296,320,315,297,305,311,311,306,311,313,308,315,313,320,317,315,323,314,329,313,319,321,326,320,320,319,321,320,329,319,326,325,325,327,328,329,318,326,328,328,324,334,332,335,341,344,342,357,344,329,328,329,331,321,294,398,573,545,359,299,320,327,329,323,333,330,333,325,335,339,337,346,352,351,355,355,374,369,375,380,382,368,362,360,334,314,308,300,309,304,300,313,300,298,309,314,310,301,305,316,303,315,318,314,323,320,317,317,321,313,321,322,317,311,318,320,322,328,329,318,316,323,324,331,320,326,325,334,331,324,321,320,323,345,348,349,352,343,333,332,329,327,327,300,364,515,553,370,293,320,319,324,341,335,343,321,331,339,348,342,361,348,358,363,356,376,380,388,382,380,373,372,350,342,326,318,313,315,305,293,296,318,313,307,312,313,308,325,324,315,318,314,324,311,314,318,322,315,325,317,323,313,315,327,330,328,329,317,323,325,333,322,323,331,318,334,327,332,329,339,335,344,337,356,349,323,324,324,331,318,304,428,576,496,318,304,322,320,322,322,342,327,343,336,335,333,349,349,351,354,354,355,369,379,376,381,378,372,363,352,334,329,304,291,304,303,308,306,306,312,319,311,309,313,318,310,322,318,324,308,319,608,975,437,462,448,575,2573,28160,28257,26880,26222,28416,26230,11776,-8160,123,3328,121,25088,-6144,-15104,-15360,-16384,-16128,-15872,-14848,256,7196,2657,2570,14090,3376,12298,12345,2573,13879,2573,14642,3384,13066,13620,2573,13111,2573,14136,3385,14090,3379,13834,12852,2573,13368,2573,13872,3378,14090,3384,12298,12345,2573,13368,321,332,322,330,326,331,331,352,417,421,317,311,325,333,328,334,328,322,333,323,327,327,334,336,349,336,327,329,336,324,301,350,510,563,380,295,313,321,323,334,331,339,328,336,337,344,338,353,348,353,358,365,370,373,385,383,389,375,365,361,345,322,327,301,316,312,304,308,310,309,310,313,303,310,311,317,309,319,314,321,317,317,317,320,315,318,315,327,322,322,314,325,325,317,324,320,324,324,318,331,332,322,330,320,334,333,332,326,333,340,349,360,348,337,323,332,333,341,317,301,413,569,511,328,302,326,326,329,325,334,326,341,335,338,335,344,349,351,354,361,363,361,377,376,387,389,378,356,355,333,325,308,304,307,313,302,305,309,297,310,314,311,307,313,316,315,313,322,308,316,318,319,311,319,314,324,314,321,325,320,323,320,322,316,323,325,326,325,335,319,327,317,328,328,327,326,328,329,329,336,335,337,345,345,349,327,330,328,328,321,285,403,572,547,345,302,317,323,323,329,337,336,335,331,338,344,346,347,349,357,357,357,378,370,387,368,380,378,368,345,334,321,313,306,296,304,309,302,309,302,311,312,307,307,304,317,311,329,321,320,317,318,312,312,317,326,320,318,328,315,328,322,326,317,337,323,320,320,326,324,336,326,334,325,329,327,333,334,340,344,336,341,349,351,330,325,322,336,326,303,389,554,507,332,295,309,330,333,344,334,322,335,343,348,354,361,351,342,354,362,371,367,377,370,388,381,377,369,354,347,328,313,303,305,306,309,303,309,309,316,308,317,308,323,319,316,307,312,316,316,320,319,318,316,322,320,328,320,327,319,333,320,332,329,327,321,322,338,322,326,331,323,329,321,336,335,329,340,341,347,337,335,326,327,323,324,298,339,496,579,422,299,312,322,324,321,336,337,332,330,335,329,350,342,344,344,364,360,379,372,387,375,379,377,375,362,340,326,318,309,301,297,296,320,315,297,305,311,311,306,311,313,308,315,313,320,317,315,323,314,329,313,319,321,326,320,320,319,321,320,329,319,326,325,325,327,328,329,318,326,328,328,324,334,332,335,341,344,342,357,344,329,328,329,331,321,294,398,573,545,359,299,320,327,329,323,333,330,333,325,335,339,337,346,352,351,355,355,374,369,375,380,382,368,362,360,334,314,308,300,309,304,300,313,300,298,309,314,310,301,305,316,303,315,318,314,323,320,317,317,321,313,321,322,317,311,318,320,322,328,329,318,316,323,324,331,320,326,325,334,331,324,321,320,323,345,348,349,352,343,333,332,329,327,327,300,364,515,553,370,293,320,319,324,341,335,343,321,331,339,348,342,361,348,358,363,356,376,380,388,382,380,373,372,350,342,326,318,313,315,305,293,296,318,313,307,312,313,308,325,324,315,318,314,324,311,314,318,322,315,325,317,323,313,315,327,330,328,329,317,323,325,333,322,323,331,318,334,327,332,329,339,335,344,337,356,349,323,324,324,331,318,304,428,576,496,318,304,322,320,322,322,342,327,343,336,335,333,349,349,351,354,354,355,369,379,376,381,378,372,363,352,334,329,304,291,304,303,308,306,306,312,319,311,309,313,318,310,322,318,324,308,319,608,975,437,462,448,575,2573,28160,28257,26880,26222,28416,26230,11776,-11140,155,16896,152,25088,-6144,-15104,-15360,-16384,-16128,-15872,-14848,256,5397,2657,12849,3384,13578,14391,2573,14643,3377,14090,3379,13834,13108,2573,14135,2573,14640,3376,14090,3385,14346,13363,2573,12337,3384,14090,3379,12554,13619,2573,13111,2573,12593,3377,321,332,322,330,326,331,331,352,417,421,317,311,325,333,328,334,328,322,333,323,327,327,334,336,349,336,327,329,336,324,301,350,510,563,380,295,313,321,323,334,331,339,328,336,337,344,338,353,348,353,358,365,370,373,385,383,389,375,365,361,345,322,327,301,316,312,304,308,310,309,310,313,303,310,311,317,309,319,314,321,317,317,317,320,315,318,315,327,322,322,314,325,325,317,324,320,324,324,318,331,332,322,330,320,334,333,332,326,333,340,349,360,348,337,323,332,333,341,317,301,413,569,511,328,302,326,326,329,325,334,326,341,335,338,335,344,349,351,354,361,363,361,377,376,387,389,378,356,355,333,325,308,304,307,313,302,305,309,297,310,314,311,307,313,316,315,313,322,308,316,318,319,311,319,314,324,314,321,325,320,323,320,322,316,323,325,326,325,335,319,327,317,328,328,327,326,328,329,329,336,335,337,345,345,349,327,330,328,328,321,285,403,572,547,345,302,317,323,323,329,337,336,335,331,338,344,346,347,349,357,357,357,378,370,387,368,380,378,368,345,334,321,313,306,296,304,309,302,309,302,311,312,307,307,304,317,311,329,321,320,317,318,312,312,317,326,320,318,328,315,328,322,326,317,337,323,320,320,326,324,336,326,334,325,329,327,333,334,340,344,336,341,349,351,330,325,322,336,326,303,389,554,507,332,295,309,330,333,344,334,322,335,343,348,354,361,351,342,354,362,371,367,377,370,388,381,377,369,354,347,328,313,303,305,306,309,303,309,309,316,308,317,308,323,319,316,307,312,316,316,320,319,318,316,322,320,328,320,327,319,333,320,332,329,327,321,322,338,322,326,331,323,329,321,336,335,329,340,341,347,337,335,326,327,323,324,298,339,496,579,422,299,312,322,324,321,336,337,332,330,335,329,350,342,344,344,364,360,379,372,387,375,379,377,375,362,340,326,318,309,301,297,296,320,315,297,305,311,311,306,311,313,308,315,313,320,317,315,323,314,329,313,319,321,326,320,320,319,321,320,329,319,326,325,325,327,328,329,318,326,328,328,324,334,332,335,341,344,342,357,344,329,328,329,331,321,294,398,573,545,359,299,320,327,329,323,333,330,333,325,335,339,337,346,352,351,355,355,374,369,375,380,382,368,362,360,334,314,308,300,309,304,300,313,300,298,309,314,310,301,305,316,303,315,318,314,323,320,317,317,321,313,321,322,317,311,318,320,322,328,329,318,316,323,324,331,320,326,325,334,331,324,321,320,323,345,348,349,352,343,333,332,329,327,327,300,364,515,553,370,293,320,319,324,341,335,343,321,331,339,348,342,361,348,358,363,356,376,380,388,382,380,373,372,350,342,326,318,313,315,305,293,296,318,313,307,312,313,308,325,324,315,318,314,324,311,314,318,322,315,325,317,323,313,315,327,330,328,329,317,323,325,333,322,323,331,318,334,327,332,329,339,335,344,337,356,349,323,324,324,331,318,304,428,576,496,318,304,322,320,322,322,342,327,343,336,335,333,349,349,351,354,354,355,369,379,376,381,378,372,363,352,334,329,304,291,304,303,308,306,306,312,319,311,309,313,318,310,322,318,324,308,319,608,975,437,462,448,575,2573,28160,28257,26880,26222,28416,26230,11776,-13989,187,30464,183,25088,-6144,-15104,-15360,-16384,-16128,-15872,-14848,256,3598,2657,12855,2573,14388,14388,2573,2573,13111,2573,12593,3377,14090,3379,13578,13113,2573,14135,2573,14640,3376,14090,3385,13578,14391,2573,12593,3379,14090,3379,12554,13619,2573,13111,321,332,322,330,326,331,331,352,417,421,317,311,325,333,328,334,328,322,333,323,327,327,334,336,349,336,327,329,336,324,301,350,510,563,380,295,313,321,323,334,331,339,328,336,337,344,338,353,348,353,358,365,370,373,385,383,389,375,365,361,345,322,327,301,316,312,304,308,310,309,310,313,303,310,311,317,309,319,314,321,317,317,317,320,315,318,315,327,322,322,314,325,325,317,324,320,324,324,318,331,332,322,330,320,334,333,332,326,333,340,349,360,348,337,323,332,333,341,317,301,413,569,511,328,302,326,326,329,325,334,326,341,335,338,335,344,349,351,354,361,363,361,377,376,387,389,378,356,355,333,325,308,304,307,313,302,305,309,297,310,314,311,307,313,316,315,313,322,